10.00010 346.000
10.02052 346.000
10.04095 350.000
10.06137 318.000
10.08179 356.000
10.10222 323.000
10.12264 328.000
10.14306 321.000
10.16348 344.000
10.18391 367.000
10.20433 319.000
10.22475 343.000
10.24518 333.000
10.26560 364.000
10.28602 307.000
10.30645 347.000
10.32687 342.000
10.34729 315.000
10.36771 305.000
10.38814 326.000
10.40856 327.000
10.42898 336.000
10.44941 289.000
10.46983 313.000
10.49025 312.000
10.51068 331.000
10.53110 303.000
10.55152 290.000
10.57194 317.000
10.59237 305.000
10.61279 327.000
10.63321 318.000
10.65364 313.000
10.67406 304.000
10.69448 360.000
10.71491 324.000
10.73533 342.000
10.75575 311.000
10.77617 314.000
10.79660 317.000
10.81702 348.000
10.83744 302.000
10.85787 329.000
10.87829 345.000
10.89871 310.000
10.91914 338.000
10.93956 304.000
10.95998 317.000
10.98040 321.000
11.00083 319.000
11.02125 338.000
11.04167 367.000
11.06210 310.000
11.08252 319.000
11.10294 323.000
11.12337 320.000
11.14379 315.000
11.16421 301.000
11.18463 312.000
11.20506 320.000
11.22548 319.000
11.24590 279.000
11.26633 319.000
11.28675 320.000
11.30717 320.000
11.32760 284.000
11.34802 302.000
11.36844 317.000
11.38886 289.000
11.40929 317.000
11.42971 290.000
11.45013 307.000
11.47056 284.000
11.49098 279.000
11.51140 303.000
11.53183 301.000
11.55225 300.000
11.57267 303.000
11.59309 294.000
11.61352 299.000
11.63394 302.000
11.65436 306.000
11.67479 299.000
11.69521 323.000
11.71563 304.000
11.73606 285.000
11.75648 280.000
11.77690 281.000
11.79732 279.000
11.81775 310.000
11.83817 278.000
11.85859 312.000
11.87902 258.000
11.89944 308.000
11.91986 276.000
11.94029 289.000
11.96071 296.000
11.98113 275.000
12.00155 313.000
12.02198 274.000
12.04240 270.000
12.06282 272.000
12.08325 310.000
12.10367 279.000
12.12409 296.000
12.14452 306.000
12.16494 276.000
12.18536 281.000
12.20578 262.000
12.22621 263.000
12.24663 304.000
12.26705 288.000
12.28748 270.000
12.30790 309.000
12.32832 281.000
12.34875 295.000
12.36917 258.000
12.38959 287.000
12.41001 275.000
12.43044 277.000
12.45086 271.000
12.47128 281.000
12.49171 299.000
12.51213 285.000
12.53255 262.000
12.55298 255.000
12.57340 258.000
12.59382 266.000
12.61424 247.000
12.63467 265.000
12.65509 278.000
12.67551 303.000
12.69594 282.000
12.71636 281.000
12.73678 293.000
12.75721 272.000
12.77763 278.000
12.79805 281.000
12.81847 248.000
12.83890 277.000
12.85932 253.000
12.87974 269.000
12.90017 310.000
12.92059 251.000
12.94101 255.000
12.96144 240.000
12.98186 266.000
13.00228 262.000
13.02270 273.000
13.04313 224.000
13.06355 240.000
13.08397 256.000
13.10440 233.000
13.12482 276.000
13.14524 273.000
13.16567 260.000
13.18609 257.000
13.20651 287.000
13.22693 249.000
13.24736 281.000
13.26778 240.000
13.28820 237.000
13.30863 269.000
13.32905 259.000
13.34947 251.000
13.36990 254.000
13.39032 256.000
13.41074 266.000
13.43116 239.000
13.45159 234.000
13.47201 261.000
13.49243 250.000
13.51286 262.000
13.53328 245.000
13.55370 240.000
13.57413 256.000
13.59455 253.000
13.61497 246.000
13.63539 250.000
13.65582 262.000
13.67624 259.000
13.69666 260.000
13.71709 251.000
13.73751 215.000
13.75793 233.000
13.77836 212.000
13.79878 241.000
13.81920 261.000
13.83962 249.000
13.86005 267.000
13.88047 244.000
13.90089 245.000
13.92132 218.000
13.94174 241.000
13.96216 247.000
13.98259 253.000
14.00301 263.000
14.02343 224.000
14.04385 247.000
14.06428 244.000
14.08470 259.000
14.10512 219.000
14.12555 223.000
14.14597 246.000
14.16639 253.000
14.18682 209.000
14.20724 218.000
14.22766 225.000
14.24808 220.000
14.26851 222.000
14.28893 258.000
14.30935 230.000
14.32978 246.000
14.35020 234.000
14.37062 220.000
14.39105 253.000
14.41147 236.000
14.43189 232.000
14.45231 203.000
14.47274 200.000
14.49316 245.000
14.51358 234.000
14.53401 191.000
14.55443 224.000
14.57485 240.000
14.59528 191.000
14.61570 231.000
14.63612 245.000
14.65654 213.000
14.67697 232.000
14.69739 226.000
14.71781 205.000
14.73824 220.000
14.75866 205.000
14.77908 240.000
14.79951 216.000
14.81993 243.000
14.84035 197.000
14.86077 229.000
14.88120 242.000
14.90162 221.000
14.92204 212.000
14.94247 241.000
14.96289 215.000
14.98331 207.000
15.00374 242.000
15.02416 209.000
15.04458 239.000
15.06500 220.000
15.08543 234.000
15.10585 225.000
15.12627 254.000
15.14670 231.000
15.16712 252.000
15.18754 233.000
15.20797 210.000
15.22839 253.000
15.24881 238.000
15.26923 219.000
15.28966 222.000
15.31008 196.000
15.33050 234.000
15.35093 220.000
15.37135 224.000
15.39177 213.000
15.41220 215.000
15.43262 220.000
15.45304 194.000
15.47346 207.000
15.49389 209.000
15.51431 216.000
15.53473 206.000
15.55516 231.000
15.57558 221.000
15.59600 201.000
15.61643 191.000
15.63685 208.000
15.65727 205.000
15.67769 211.000
15.69812 235.000
15.71854 204.000
15.73896 215.000
15.75939 229.000
15.77981 219.000
15.80023 204.000
15.82066 216.000
15.84108 213.000
15.86150 203.000
15.88192 210.000
15.90235 229.000
15.92277 209.000
15.94319 201.000
15.96362 219.000
15.98404 226.000
16.00446 229.000
16.02489 196.000
16.04531 211.000
16.06573 204.000
16.08615 229.000
16.10658 212.000
16.12700 223.000
16.14742 226.000
16.16785 211.000
16.18827 212.000
16.20869 207.000
16.22912 239.000
16.24954 207.000
16.26996 187.000
16.29038 196.000
16.31081 201.000
16.33123 194.000
16.35165 234.000
16.37208 219.000
16.39250 232.000
16.41292 208.000
16.43335 198.000
16.45377 189.000
16.47419 213.000
16.49461 236.000
16.51504 210.000
16.53546 170.000
16.55588 207.000
16.57631 201.000
16.59673 221.000
16.61715 217.000
16.63758 203.000
16.65800 208.000
16.67842 221.000
16.69884 196.000
16.71927 210.000
16.73969 202.000
16.76011 215.000
16.78054 202.000
16.80096 205.000
16.82138 236.000
16.84181 201.000
16.86223 194.000
16.88265 206.000
16.90307 230.000
16.92350 222.000
16.94392 212.000
16.96434 180.000
16.98477 205.000
17.00519 212.000
17.02561 220.000
17.04604 211.000
17.06646 193.000
17.08688 208.000
17.10730 230.000
17.12773 203.000
17.14815 190.000
17.16857 196.000
17.18900 216.000
17.20942 187.000
17.22984 219.000
17.25027 204.000
17.27069 177.000
17.29111 184.000
17.31153 186.000
17.33196 198.000
17.35238 158.000
17.37280 188.000
17.39323 188.000
17.41365 201.000
17.43407 214.000
17.45450 192.000
17.47492 197.000
17.49534 218.000
17.51576 201.000
17.53619 209.000
17.55661 214.000
17.57703 220.000
17.59746 202.000
17.61788 182.000
17.63830 201.000
17.65873 208.000
17.67915 194.000
17.69957 228.000
17.71999 195.000
17.74042 204.000
17.76084 206.000
17.78126 203.000
17.80169 191.000
17.82211 209.000
17.84253 215.000
17.86296 188.000
17.88338 203.000
17.90380 202.000
17.92422 171.000
17.94465 164.000
17.96507 206.000
17.98549 188.000
18.00592 219.000
18.02634 212.000
18.04676 201.000
18.06719 195.000
18.08761 185.000
18.10803 194.000
18.12845 216.000
18.14888 203.000
18.16930 204.000
18.18972 186.000
18.21015 201.000
18.23057 213.000
18.25099 184.000
18.27142 178.000
18.29184 224.000
18.31226 219.000
18.33268 199.000
18.35311 187.000
18.37353 200.000
18.39395 200.000
18.41438 197.000
18.43480 176.000
18.45522 196.000
18.47565 207.000
18.49607 198.000
18.51649 205.000
18.53691 222.000
18.55734 205.000
18.57776 167.000
18.59818 215.000
18.61861 191.000
18.63903 206.000
18.65945 215.000
18.67988 195.000
18.70030 204.000
18.72072 178.000
18.74114 213.000
18.76157 197.000
18.78199 200.000
18.80241 189.000
18.82284 190.000
18.84326 220.000
18.86368 198.000
18.88411 207.000
18.90453 181.000
18.92495 180.000
18.94537 194.000
18.96580 196.000
18.98622 201.000
19.00664 179.000
19.02707 203.000
19.04749 205.000
19.06791 192.000
19.08834 179.000
19.10876 179.000
19.12918 166.000
19.14960 182.000
19.17003 167.000
19.19045 190.000
19.21087 204.000
19.23130 190.000
19.25172 184.000
19.27214 227.000
19.29257 198.000
19.31299 173.000
19.33341 199.000
19.35383 185.000
19.37426 192.000
19.39468 202.000
19.41510 217.000
19.43553 180.000
19.45595 173.000
19.47637 192.000
19.49680 193.000
19.51722 205.000
19.53764 191.000
19.55806 195.000
19.57849 207.000
19.59891 185.000
19.61933 178.000
19.63976 175.000
19.66018 192.000
19.68060 173.000
19.70103 178.000
19.72145 207.000
19.74187 196.000
19.76229 173.000
19.78272 179.000
19.80314 186.000
19.82356 159.000
19.84399 194.000
19.86441 176.000
19.88483 207.000
19.90526 186.000
19.92568 172.000
19.94610 188.000
19.96652 190.000
19.98695 187.000
20.00737 178.000
20.02779 177.000
20.04822 200.000
20.06864 190.000
20.08906 172.000
20.10949 189.000
20.12991 184.000
20.15033 174.000
20.17075 179.000
20.19118 212.000
20.21160 179.000
20.23202 218.000
20.25245 178.000
20.27287 157.000
20.29329 173.000
20.31372 204.000
20.33414 183.000
20.35456 169.000
20.37498 199.000
20.39541 193.000
20.41583 177.000
20.43625 218.000
20.45668 194.000
20.47710 193.000
20.49752 184.000
20.51795 187.000
20.53837 183.000
20.55879 170.000
20.57921 210.000
20.59964 183.000
20.62006 166.000
20.64048 186.000
20.66091 195.000
20.68133 213.000
20.70175 216.000
20.72218 197.000
20.74260 209.000
20.76302 196.000
20.78344 195.000
20.80387 177.000
20.82429 186.000
20.84471 175.000
20.86514 186.000
20.88556 187.000
20.90598 185.000
20.92641 202.000
20.94683 187.000
20.96725 205.000
20.98767 193.000
21.00810 180.000
21.02852 175.000
21.04894 140.000
21.06937 193.000
21.08979 204.000
21.11021 189.000
21.13064 203.000
21.15106 166.000
21.17148 229.000
21.19190 175.000
21.21233 165.000
21.23275 215.000
21.25317 186.000
21.27360 179.000
21.29402 181.000
21.31444 174.000
21.33487 199.000
21.35529 180.000
21.37571 192.000
21.39613 196.000
21.41656 189.000
21.43698 179.000
21.45740 161.000
21.47783 174.000
21.49825 202.000
21.51867 183.000
21.53910 171.000
21.55952 186.000
21.57994 186.000
21.60036 165.000
21.62079 178.000
21.64121 171.000
21.66163 175.000
21.68206 154.000
21.70248 202.000
21.72290 200.000
21.74333 171.000
21.76375 190.000
21.78417 200.000
21.80459 205.000
21.82502 177.000
21.84544 191.000
21.86586 170.000
21.88629 184.000
21.90671 193.000
21.92713 170.000
21.94756 193.000
21.96798 200.000
21.98840 175.000
22.00882 178.000
22.02925 209.000
22.04967 184.000
22.07009 186.000
22.09052 184.000
22.11094 181.000
22.13136 164.000
22.15179 177.000
22.17221 188.000
22.19263 192.000
22.21305 196.000
22.23348 227.000
22.25390 186.000
22.27432 182.000
22.29475 165.000
22.31517 201.000
22.33559 206.000
22.35602 195.000
22.37644 177.000
22.39686 187.000
22.41728 176.000
22.43771 192.000
22.45813 171.000
22.47855 186.000
22.49898 176.000
22.51940 182.000
22.53982 164.000
22.56025 206.000
22.58067 204.000
22.60109 185.000
22.62151 187.000
22.64194 198.000
22.66236 184.000
22.68278 205.000
22.70321 204.000
22.72363 187.000
22.74405 219.000
22.76448 195.000
22.78490 199.000
22.80532 198.000
22.82574 225.000
22.84617 199.000
22.86659 182.000
22.88701 191.000
22.90744 186.000
22.92786 186.000
22.94828 177.000
22.96871 172.000
22.98913 201.000
23.00955 154.000
23.02997 187.000
23.05040 169.000
23.07082 185.000
23.09124 166.000
23.11167 178.000
23.13209 183.000
23.15251 188.000
23.17294 218.000
23.19336 162.000
23.21378 202.000
23.23420 175.000
23.25463 158.000
23.27505 177.000
23.29547 180.000
23.31590 203.000
23.33632 184.000
23.35674 200.000
23.37717 176.000
23.39759 179.000
23.41801 171.000
23.43843 198.000
23.45886 175.000
23.47928 176.000
23.49970 167.000
23.52013 159.000
23.54055 197.000
23.56097 182.000
23.58140 191.000
23.60182 179.000
23.62224 213.000
23.64266 188.000
23.66309 196.000
23.68351 169.000
23.70393 177.000
23.72436 178.000
23.74478 211.000
23.76520 182.000
23.78563 190.000
23.80605 173.000
23.82647 190.000
23.84689 168.000
23.86732 168.000
23.88774 181.000
23.90816 179.000
23.92859 193.000
23.94901 192.000
23.96943 175.000
23.98986 179.000
24.01028 186.000
24.03070 197.000
24.05112 202.000
24.07155 159.000
24.09197 180.000
24.11239 188.000
24.13282 174.000
24.15324 193.000
24.17366 177.000
24.19409 168.000
24.21451 185.000
24.23493 179.000
24.25535 189.000
24.27578 193.000
24.29620 197.000
24.31662 180.000
24.33705 199.000
24.35747 193.000
24.37789 210.000
24.39832 181.000
24.41874 216.000
24.43916 208.000
24.45958 194.000
24.48001 220.000
24.50043 253.000
24.52085 233.000
24.54128 206.000
24.56170 207.000
24.58212 216.000
24.60255 211.000
24.62297 272.000
24.64339 206.000
24.66381 211.000
24.68424 224.000
24.70466 201.000
24.72508 201.000
24.74551 229.000
24.76593 224.000
24.78635 243.000
24.80678 215.000
24.82720 203.000
24.84762 240.000
24.86804 252.000
24.88847 275.000
24.90889 269.000
24.92931 297.000
24.94974 319.000
24.97016 351.000
24.99058 384.000
25.01101 399.000
25.03143 422.000
25.05185 489.000
25.07227 605.000
25.09270 572.000
25.11312 734.000
25.13354 849.000
25.15397 1059.000
25.17439 1300.000
25.19481 1669.000
25.21524 2415.000
25.23566 3887.000
25.25608 5992.000
25.27650 7598.000
25.29693 7183.000
25.31735 5756.000
25.33777 4960.000
25.35820 3780.000
25.37862 2408.000
25.39904 1348.000
25.41947 912.000
25.43989 649.000
25.46031 470.000
25.48073 450.000
25.50116 410.000
25.52158 332.000
25.54200 293.000
25.56243 331.000
25.58285 280.000
25.60327 295.000
25.62370 273.000
25.64412 257.000
25.66454 263.000
25.68496 247.000
25.70539 203.000
25.72581 257.000
25.74623 242.000
25.76666 222.000
25.78708 209.000
25.80750 221.000
25.82793 193.000
25.84835 223.000
25.86877 205.000
25.88919 204.000
25.90962 195.000
25.93004 200.000
25.95046 230.000
25.97089 186.000
25.99131 202.000
26.01173 208.000
26.03216 183.000
26.05258 234.000
26.07300 201.000
26.09342 219.000
26.11385 189.000
26.13427 196.000
26.15469 224.000
26.17512 180.000
26.19554 202.000
26.21596 231.000
26.23639 188.000
26.25681 215.000
26.27723 196.000
26.29765 190.000
26.31808 192.000
26.33850 201.000
26.35892 199.000
26.37935 202.000
26.39977 184.000
26.42019 204.000
26.44062 189.000
26.46104 185.000
26.48146 190.000
26.50188 191.000
26.52231 216.000
26.54273 186.000
26.56315 202.000
26.58358 207.000
26.60400 212.000
26.62442 231.000
26.64485 192.000
26.66527 189.000
26.68569 214.000
26.70611 202.000
26.72654 200.000
26.74696 189.000
26.76738 187.000
26.78781 167.000
26.80823 193.000
26.82865 171.000
26.84908 168.000
26.86950 191.000
26.88992 191.000
26.91034 211.000
26.93077 197.000
26.95119 194.000
26.97161 188.000
26.99204 205.000
27.01246 165.000
27.03288 198.000
27.05331 210.000
27.07373 207.000
27.09415 191.000
27.11457 182.000
27.13500 162.000
27.15542 184.000
27.17584 191.000
27.19627 200.000
27.21669 182.000
27.23711 179.000
27.25754 219.000
27.27796 175.000
27.29838 193.000
27.31880 205.000
27.33923 190.000
27.35965 197.000
27.38007 216.000
27.40050 234.000
27.42092 242.000
27.44134 202.000
27.46177 235.000
27.48219 209.000
27.50261 179.000
27.52303 200.000
27.54346 198.000
27.56388 168.000
27.58430 183.000
27.60473 183.000
27.62515 191.000
27.64557 189.000
27.66600 162.000
27.68642 181.000
27.70684 185.000
27.72726 177.000
27.74769 181.000
27.76811 169.000
27.78853 180.000
27.80896 195.000
27.82938 172.000
27.84980 191.000
27.87023 184.000
27.89065 170.000
27.91107 167.000
27.93149 172.000
27.95192 175.000
27.97234 196.000
27.99276 179.000
28.01319 193.000
28.03361 185.000
28.05403 193.000
28.07446 188.000
28.09488 185.000
28.11530 187.000
28.13572 192.000
28.15615 189.000
28.17657 190.000
28.19699 172.000
28.21742 188.000
28.23784 197.000
28.25826 162.000
28.27869 203.000
28.29911 175.000
28.31953 191.000
28.33995 164.000
28.36038 164.000
28.38080 183.000
28.40122 167.000
28.42165 199.000
28.44207 187.000
28.46249 193.000
28.48292 176.000
28.50334 183.000
28.52376 197.000
28.54418 191.000
28.56461 187.000
28.58503 162.000
28.60545 172.000
28.62588 167.000
28.64630 181.000
28.66672 201.000
28.68715 186.000
28.70757 156.000
28.72799 175.000
28.74841 178.000
28.76884 180.000
28.78926 185.000
28.80968 170.000
28.83011 172.000
28.85053 196.000
28.87095 174.000
28.89138 202.000
28.91180 164.000
28.93222 183.000
28.95264 185.000
28.97307 172.000
28.99349 173.000
29.01391 187.000
29.03434 158.000
29.05476 182.000
29.07518 181.000
29.09561 185.000
29.11603 188.000
29.13645 204.000
29.15687 188.000
29.17730 189.000
29.19772 162.000
29.21814 181.000
29.23857 174.000
29.25899 189.000
29.27941 190.000
29.29984 168.000
29.32026 196.000
29.34068 182.000
29.36110 191.000
29.38153 163.000
29.40195 161.000
29.42237 164.000
29.44280 189.000
29.46322 189.000
29.48364 184.000
29.50407 178.000
29.52449 206.000
29.54491 173.000
29.56533 168.000
29.58576 171.000
29.60618 187.000
29.62660 177.000
29.64703 195.000
29.66745 171.000
29.68787 187.000
29.70830 213.000
29.72872 181.000
29.74914 162.000
29.76956 180.000
29.78999 164.000
29.81041 201.000
29.83083 171.000
29.85126 186.000
29.87168 174.000
29.89210 160.000
29.91253 181.000
29.93295 158.000
29.95337 176.000
29.97379 188.000
29.99422 147.000
30.01464 171.000
30.03506 193.000
30.05549 161.000
30.07591 162.000
30.09633 166.000
30.11676 185.000
30.13718 167.000
30.15760 189.000
30.17802 179.000
30.19845 169.000
30.21887 184.000
30.23929 189.000
30.25972 154.000
30.28014 193.000
30.30056 186.000
30.32099 169.000
30.34141 197.000
30.36183 209.000
30.38225 179.000
30.40268 182.000
30.42310 199.000
30.44352 178.000
30.46395 179.000
30.48437 182.000
30.50479 154.000
30.52522 183.000
30.54564 161.000
30.56606 161.000
30.58648 178.000
30.60691 154.000
30.62733 181.000
30.64775 177.000
30.66818 189.000
30.68860 178.000
30.70902 178.000
30.72945 158.000
30.74987 185.000
30.77029 167.000
30.79071 158.000
30.81114 178.000
30.83156 164.000
30.85198 178.000
30.87241 181.000
30.89283 205.000
30.91325 192.000
30.93368 174.000
30.95410 209.000
30.97452 181.000
30.99494 187.000
31.01537 172.000
31.03579 183.000
31.05621 162.000
31.07664 186.000
31.09706 157.000
31.11748 168.000
31.13791 175.000
31.15833 194.000
31.17875 189.000
31.19917 157.000
31.21960 186.000
31.24002 167.000
31.26044 182.000
31.28087 163.000
31.30129 177.000
31.32171 158.000
31.34214 167.000
31.36256 138.000
31.38298 181.000
31.40340 166.000
31.42383 187.000
31.44425 169.000
31.46467 177.000
31.48510 148.000
31.50552 177.000
31.52594 176.000
31.54637 187.000
31.56679 158.000
31.58721 198.000
31.60763 182.000
31.62806 146.000
31.64848 161.000
31.66890 169.000
31.68933 186.000
31.70975 175.000
31.73017 184.000
31.75060 162.000
31.77102 163.000
31.79144 176.000
31.81186 204.000
31.83229 180.000
31.85271 157.000
31.87313 194.000
31.89356 161.000
31.91398 180.000
31.93440 197.000
31.95483 197.000
31.97525 177.000
31.99567 161.000
32.01609 190.000
32.03652 155.000
32.05694 150.000
32.07736 164.000
32.09779 153.000
32.11821 167.000
32.13863 178.000
32.15906 176.000
32.17948 200.000
32.19990 171.000
32.22032 130.000
32.24075 145.000
32.26117 159.000
32.28159 173.000
32.30202 160.000
32.32244 183.000
32.34286 165.000
32.36329 182.000
32.38371 173.000
32.40413 147.000
32.42455 174.000
32.44498 161.000
32.46540 151.000
32.48582 189.000
32.50625 164.000
32.52667 190.000
32.54709 171.000
32.56752 151.000
32.58794 174.000
32.60836 166.000
32.62878 160.000
32.64921 149.000
32.66963 152.000
32.69005 169.000
32.71048 173.000
32.73090 165.000
32.75132 170.000
32.77175 181.000
32.79217 165.000
32.81259 159.000
32.83301 156.000
32.85344 148.000
32.87386 156.000
32.89428 141.000
32.91471 150.000
32.93513 173.000
32.95555 172.000
32.97598 158.000
32.99640 166.000
33.01682 182.000
33.03724 167.000
33.05767 169.000
33.07809 189.000
33.09851 164.000
33.11894 168.000
33.13936 170.000
33.15978 169.000
33.18021 164.000
33.20063 178.000
33.22105 184.000
33.24147 158.000
33.26190 173.000
33.28232 169.000
33.30274 169.000
33.32317 160.000
33.34359 178.000
33.36401 163.000
33.38444 156.000
33.40486 167.000
33.42528 162.000
33.44570 156.000
33.46613 185.000
33.48655 208.000
33.50697 172.000
33.52740 163.000
33.54782 193.000
33.56824 186.000
33.58867 179.000
33.60909 185.000
33.62951 176.000
33.64993 180.000
33.67036 159.000
33.69078 155.000
33.71120 179.000
33.73163 158.000
33.75205 154.000
33.77247 157.000
33.79290 158.000
33.81332 166.000
33.83374 165.000
33.85416 160.000
33.87459 187.000
33.89501 172.000
33.91543 174.000
33.93586 144.000
33.95628 151.000
33.97670 162.000
33.99713 158.000
34.01755 174.000
34.03797 167.000
34.05839 159.000
34.07882 179.000
34.09924 145.000
34.11966 144.000
34.14009 173.000
34.16051 158.000
34.18093 171.000
34.20136 175.000
34.22178 171.000
34.24220 157.000
34.26262 167.000
34.28305 156.000
34.30347 161.000
34.32389 182.000
34.34432 163.000
34.36474 172.000
34.38516 167.000
34.40559 144.000
34.42601 173.000
34.44643 150.000
34.46685 170.000
34.48728 179.000
34.50770 165.000
34.52812 170.000
34.54855 182.000
34.56897 172.000
34.58939 173.000
34.60982 144.000
34.63024 158.000
34.65066 170.000
34.67108 145.000
34.69151 173.000
34.71193 159.000
34.73235 153.000
34.75278 163.000
34.77320 144.000
34.79362 169.000
34.81405 154.000
34.83447 179.000
34.85489 168.000
34.87531 163.000
34.89574 183.000
34.91616 146.000
34.93658 173.000
34.95701 156.000
34.97743 143.000
34.99785 159.000
35.01828 167.000
35.03870 170.000
35.05912 167.000
35.07954 147.000
35.09997 162.000
35.12039 161.000
35.14081 167.000
35.16124 197.000
35.18166 157.000
35.20208 138.000
35.22251 159.000
35.24293 165.000
35.26335 159.000
35.28377 157.000
35.30420 153.000
35.32462 162.000
35.34504 180.000
35.36547 177.000
35.38589 146.000
35.40631 176.000
35.42674 181.000
35.44716 158.000
35.46758 158.000
35.48800 175.000
35.50843 184.000
35.52885 147.000
35.54927 157.000
35.56970 159.000
35.59012 159.000
35.61054 177.000
35.63097 159.000
35.65139 171.000
35.67181 165.000
35.69223 184.000
35.71266 183.000
35.73308 164.000
35.75350 153.000
35.77393 157.000
35.79435 171.000
35.81477 163.000
35.83520 147.000
35.85562 173.000
35.87604 171.000
35.89646 153.000
35.91689 159.000
35.93731 161.000
35.95773 153.000
35.97816 162.000
35.99858 163.000
36.01900 158.000
36.03943 208.000
36.05985 171.000
36.08027 139.000
36.10069 175.000
36.12112 195.000
36.14154 177.000
36.16196 177.000
36.18239 182.000
36.20281 175.000
36.22323 156.000
36.24366 177.000
36.26408 166.000
36.28450 156.000
36.30492 174.000
36.32535 160.000
36.34577 158.000
36.36619 155.000
36.38662 179.000
36.40704 167.000
36.42746 177.000
36.44789 167.000
36.46831 182.000
36.48873 189.000
36.50915 144.000
36.52958 168.000
36.55000 156.000
36.57042 159.000
36.59085 183.000
36.61127 161.000
36.63169 168.000
36.65212 163.000
36.67254 191.000
36.69296 176.000
36.71338 195.000
36.73381 180.000
36.75423 178.000
36.77465 219.000
36.79508 216.000
36.81550 232.000
36.83592 265.000
36.85635 288.000
36.87677 307.000
36.89719 410.000
36.91761 507.000
36.93804 513.000
36.95846 420.000
36.97888 340.000
36.99931 362.000
37.01973 347.000
37.04015 372.000
37.06058 276.000
37.08100 229.000
37.10142 177.000
37.12184 187.000
37.14227 182.000
37.16269 182.000
37.18311 179.000
37.20354 165.000
37.22396 166.000
37.24438 167.000
37.26481 180.000
37.28523 163.000
37.30565 183.000
37.32607 195.000
37.34650 179.000
37.36692 202.000
37.38734 185.000
37.40777 174.000
37.42819 165.000
37.44861 199.000
37.46904 218.000
37.48946 214.000
37.50988 193.000
37.53030 227.000
37.55073 239.000
37.57115 233.000
37.59157 266.000
37.61200 266.000
37.63242 317.000
37.65284 339.000
37.67327 417.000
37.69369 508.000
37.71411 646.000
37.73453 963.000
37.75496 1244.000
37.77538 1375.000
37.79580 1216.000
37.81623 1008.000
37.83665 834.000
37.85707 850.000
37.87750 826.000
37.89792 661.000
37.91834 435.000
37.93876 340.000
37.95919 263.000
37.97961 225.000
38.00003 214.000
38.02046 218.000
38.04088 198.000
38.06130 203.000
38.08173 166.000
38.10215 190.000
38.12257 209.000
38.14299 176.000
38.16342 188.000
38.18384 192.000
38.20426 169.000
38.22469 176.000
38.24511 177.000
38.26553 172.000
38.28596 187.000
38.30638 191.000
38.32680 172.000
38.34722 174.000
38.36765 208.000
38.38807 187.000
38.40849 197.000
38.42892 241.000
38.44934 243.000
38.46976 261.000
38.49019 319.000
38.51061 444.000
38.53103 547.000
38.55145 587.000
38.57188 461.000
38.59230 382.000
38.61272 338.000
38.63315 385.000
38.65357 355.000
38.67399 307.000
38.69442 227.000
38.71484 204.000
38.73526 195.000
38.75568 184.000
38.77611 199.000
38.79653 187.000
38.81695 168.000
38.83738 161.000
38.85780 183.000
38.87822 157.000
38.89865 158.000
38.91907 146.000
38.93949 168.000
38.95991 145.000
38.98034 178.000
39.00076 134.000
39.02118 168.000
39.04161 132.000
39.06203 181.000
39.08245 184.000
39.10288 156.000
39.12330 152.000
39.14372 168.000
39.16414 173.000
39.18457 188.000
39.20499 167.000
39.22541 173.000
39.24584 157.000
39.26626 175.000
39.28668 171.000
39.30711 166.000
39.32753 153.000
39.34795 166.000
39.36837 162.000
39.38880 150.000
39.40922 184.000
39.42964 147.000
39.45007 174.000
39.47049 167.000
39.49091 159.000
39.51134 160.000
39.53176 134.000
39.55218 174.000
39.57260 160.000
39.59303 168.000
39.61345 160.000
39.63387 164.000
39.65430 173.000
39.67472 172.000
39.69514 170.000
39.71557 162.000
39.73599 157.000
39.75641 152.000
39.77683 156.000
39.79726 166.000
39.81768 146.000
39.83810 157.000
39.85853 151.000
39.87895 154.000
39.89937 164.000
39.91980 156.000
39.94022 158.000
39.96064 166.000
39.98106 159.000
40.00149 162.000
40.02191 162.000
40.04233 162.000
40.06276 184.000
40.08318 171.000
40.10360 140.000
40.12403 178.000
40.14445 141.000
40.16487 153.000
40.18529 164.000
40.20572 170.000
40.22614 184.000
40.24656 167.000
40.26699 153.000
40.28741 178.000
40.30783 156.000
40.32826 168.000
40.34868 175.000
40.36910 159.000
40.38952 137.000
40.40995 166.000
40.43037 177.000
40.45079 163.000
40.47122 142.000
40.49164 152.000
40.51206 163.000
40.53249 144.000
40.55291 161.000
40.57333 158.000
40.59375 168.000
40.61418 177.000
40.63460 153.000
40.65502 133.000
40.67545 147.000
40.69587 153.000
40.71629 140.000
40.73672 163.000
40.75714 152.000
40.77756 171.000
40.79798 150.000
40.81841 152.000
40.83883 158.000
40.85925 162.000
40.87968 156.000
40.90010 138.000
40.92052 158.000
40.94095 134.000
40.96137 148.000
40.98179 150.000
41.00221 153.000
41.02264 158.000
41.04306 143.000
41.06348 176.000
41.08391 158.000
41.10433 149.000
41.12475 162.000
41.14518 174.000
41.16560 158.000
41.18602 142.000
41.20644 176.000
41.22687 169.000
41.24729 187.000
41.26771 173.000
41.28814 162.000
41.30856 176.000
41.32898 154.000
41.34941 163.000
41.36983 163.000
41.39025 163.000
41.41067 179.000
41.43110 148.000
41.45152 164.000
41.47194 183.000
41.49237 155.000
41.51279 157.000
41.53321 144.000
41.55364 155.000
41.57406 155.000
41.59448 162.000
41.61490 167.000
41.63533 183.000
41.65575 149.000
41.67617 141.000
41.69660 154.000
41.71702 162.000
41.73744 152.000
41.75787 162.000
41.77829 145.000
41.79871 151.000
41.81913 156.000
41.83956 150.000
41.85998 153.000
41.88040 161.000
41.90083 151.000
41.92125 144.000
41.94167 155.000
41.96210 181.000
41.98252 171.000
42.00294 154.000
42.02336 159.000
42.04379 148.000
42.06421 159.000
42.08463 146.000
42.10506 135.000
42.12548 181.000
42.14590 155.000
42.16633 167.000
42.18675 154.000
42.20717 146.000
42.22759 151.000
42.24802 174.000
42.26844 164.000
42.28886 159.000
42.30929 166.000
42.32971 179.000
42.35013 167.000
42.37056 176.000
42.39098 146.000
42.41140 158.000
42.43182 150.000
42.45225 148.000
42.47267 154.000
42.49309 145.000
42.51352 176.000
42.53394 155.000
42.55436 164.000
42.57479 145.000
42.59521 157.000
42.61563 168.000
42.63605 153.000
42.65648 172.000
42.67690 155.000
42.69732 164.000
42.71775 158.000
42.73817 155.000
42.75859 169.000
42.77902 160.000
42.79944 167.000
42.81986 175.000
42.84028 155.000
42.86071 151.000
42.88113 133.000
42.90155 151.000
42.92198 159.000
42.94240 176.000
42.96282 152.000
42.98325 166.000
43.00367 156.000
43.02409 175.000
43.04451 142.000
43.06494 155.000
43.08536 160.000
43.10578 170.000
43.12621 170.000
43.14663 152.000
43.16705 177.000
43.18748 160.000
43.20790 153.000
43.22832 164.000
43.24874 155.000
43.26917 163.000
43.28959 175.000
43.31001 157.000
43.33044 160.000
43.35086 175.000
43.37128 168.000
43.39171 139.000
43.41213 167.000
43.43255 163.000
43.45297 198.000
43.47340 161.000
43.49382 163.000
43.51424 144.000
43.53467 143.000
43.55509 155.000
43.57551 150.000
43.59594 158.000
43.61636 159.000
43.63678 137.000
43.65720 154.000
43.67763 147.000
43.69805 144.000
43.71847 163.000
43.73890 137.000
43.75932 137.000
43.77974 151.000
43.80017 146.000
43.82059 152.000
43.84101 135.000
43.86143 161.000
43.88186 159.000
43.90228 151.000
43.92270 149.000
43.94313 151.000
43.96355 146.000
43.98397 144.000
44.00440 129.000
44.02482 155.000
44.04524 177.000
44.06566 150.000
44.08609 136.000
44.10651 150.000
44.12693 132.000
44.14736 183.000
44.16778 147.000
44.18820 157.000
44.20863 155.000
44.22905 155.000
44.24947 146.000
44.26989 153.000
44.29032 129.000
44.31074 191.000
44.33116 162.000
44.35159 155.000
44.37201 141.000
44.39243 160.000
44.41286 147.000
44.43328 157.000
44.45370 158.000
44.47412 161.000
44.49455 154.000
44.51497 153.000
44.53539 178.000
44.55582 142.000
44.57624 161.000
44.59666 175.000
44.61709 150.000
44.63751 148.000
44.65793 149.000
44.67835 144.000
44.69878 149.000
44.71920 157.000
44.73962 125.000
44.76005 172.000
44.78047 139.000
44.80089 130.000
44.82132 146.000
44.84174 152.000
44.86216 161.000
44.88258 135.000
44.90301 134.000
44.92343 134.000
44.94385 156.000
44.96428 133.000
44.98470 155.000
45.00512 140.000
45.02555 156.000
45.04597 140.000
45.06639 147.000
45.08681 145.000
45.10724 147.000
45.12766 158.000
45.14808 148.000
45.16851 149.000
45.18893 167.000
45.20935 170.000
45.22978 140.000
45.25020 137.000
45.27062 156.000
45.29104 144.000
45.31147 149.000
45.33189 156.000
45.35231 154.000
45.37274 150.000
45.39316 148.000
45.41358 150.000
45.43401 149.000
45.45443 149.000
45.47485 160.000
45.49527 139.000
45.51570 164.000
45.53612 167.000
45.55654 140.000
45.57697 143.000
45.59739 138.000
45.61781 146.000
45.63824 158.000
45.65866 176.000
45.67908 161.000
45.69950 166.000
45.71993 154.000
45.74035 171.000
45.76077 160.000
45.78120 155.000
45.80162 166.000
45.82204 167.000
45.84247 152.000
45.86289 158.000
45.88331 167.000
45.90373 147.000
45.92416 150.000
45.94458 158.000
45.96500 161.000
45.98543 150.000
46.00585 166.000
46.02627 160.000
46.04670 159.000
46.06712 153.000
46.08754 159.000
46.10796 138.000
46.12839 152.000
46.14881 149.000
46.16923 147.000
46.18966 152.000
46.21008 149.000
46.23050 148.000
46.25093 150.000
46.27135 133.000
46.29177 153.000
46.31219 174.000
46.33262 161.000
46.35304 153.000
46.37346 143.000
46.39389 137.000
46.41431 150.000
46.43473 152.000
46.45516 155.000
46.47558 161.000
46.49600 152.000
46.51642 155.000
46.53685 145.000
46.55727 161.000
46.57769 168.000
46.59812 155.000
46.61854 148.000
46.63896 163.000
46.65939 149.000
46.67981 152.000
46.70023 152.000
46.72065 155.000
46.74108 182.000
46.76150 130.000
46.78192 162.000
46.80235 150.000
46.82277 148.000
46.84319 145.000
46.86362 154.000
46.88404 146.000
46.90446 145.000
46.92488 165.000
46.94531 159.000
46.96573 156.000
46.98615 163.000
47.00658 153.000
47.02700 181.000
47.04742 157.000
47.06785 153.000
47.08827 174.000
47.10869 161.000
47.12911 145.000
47.14954 132.000
47.16996 164.000
47.19038 144.000
47.21081 147.000
47.23123 152.000
47.25165 136.000
47.27208 166.000
47.29250 174.000
47.31292 178.000
47.33334 157.000
47.35377 133.000
47.37419 146.000
47.39461 179.000
47.41504 154.000
47.43546 171.000
47.45588 158.000
47.47631 161.000
47.49673 150.000
47.51715 171.000
47.53757 163.000
47.55800 181.000
47.57842 172.000
47.59884 170.000
47.61927 190.000
47.63969 169.000
47.66011 178.000
47.68054 176.000
47.70096 158.000
47.72138 187.000
47.74180 182.000
47.76223 231.000
47.78265 235.000
47.80307 249.000
47.82350 260.000
47.84392 311.000
47.86434 301.000
47.88477 320.000
47.90519 367.000
47.92561 478.000
47.94603 645.000
47.96646 932.000
47.98688 1436.000
48.00730 1772.000
48.02773 1784.000
48.04815 1322.000
48.06857 901.000
48.08900 804.000
48.10942 891.000
48.12984 994.000
48.15026 974.000
48.17069 774.000
48.19111 548.000
48.21153 407.000
48.23196 303.000
48.25238 287.000
48.27280 215.000
48.29323 226.000
48.31365 194.000
48.33407 193.000
48.35449 189.000
48.37492 181.000
48.39534 171.000
48.41576 194.000
48.43619 166.000
48.45661 148.000
48.47703 175.000
48.49746 170.000
48.51788 177.000
48.53830 165.000
48.55872 184.000
48.57915 152.000
48.59957 176.000
48.61999 179.000
48.64042 161.000
48.66084 146.000
48.68126 149.000
48.70169 120.000
48.72211 168.000
48.74253 147.000
48.76295 163.000
48.78338 145.000
48.80380 173.000
48.82422 165.000
48.84465 165.000
48.86507 155.000
48.88549 171.000
48.90592 175.000
48.92634 171.000
48.94676 155.000
48.96718 142.000
48.98761 155.000
49.00803 152.000
49.02845 144.000
49.04888 145.000
49.06930 147.000
49.08972 159.000
49.11015 163.000
49.13057 133.000
49.15099 157.000
49.17141 165.000
49.19184 149.000
49.21226 164.000
49.23268 139.000
49.25311 142.000
49.27353 147.000
49.29395 155.000
49.31438 174.000
49.33480 151.000
49.35522 182.000
49.37564 162.000
49.39607 150.000
49.41649 154.000
49.43691 163.000
49.45734 169.000
49.47776 168.000
49.49818 142.000
49.51861 152.000
49.53903 154.000
49.55945 144.000
49.57987 145.000
49.60030 163.000
49.62072 147.000
49.64114 121.000
49.66157 159.000
49.68199 153.000
49.70241 150.000
49.72284 130.000
49.74326 137.000
49.76368 140.000
49.78410 145.000
49.80453 132.000
49.82495 162.000
49.84537 149.000
49.86580 138.000
49.88622 158.000
49.90664 171.000
49.92707 174.000
49.94749 139.000
49.96791 135.000
49.98833 160.000
50.00876 146.000
50.02918 157.000
50.04960 151.000
50.07003 139.000
50.09045 130.000
50.11087 138.000
50.13130 174.000
50.15172 156.000
50.17214 145.000
50.19256 169.000
50.21299 169.000
50.23341 140.000
50.25383 162.000
50.27426 170.000
50.29468 136.000
50.31510 174.000
50.33553 163.000
50.35595 144.000
50.37637 141.000
50.39679 142.000
50.41722 144.000
50.43764 149.000
50.45806 158.000
50.47849 154.000
50.49891 135.000
50.51933 148.000
50.53976 154.000
50.56018 159.000
50.58060 152.000
50.60102 128.000
50.62145 137.000
50.64187 144.000
50.66229 162.000
50.68272 162.000
50.70314 158.000
50.72356 129.000
50.74399 163.000
50.76441 136.000
50.78483 179.000
50.80525 159.000
50.82568 165.000
50.84610 146.000
50.86652 150.000
50.88695 156.000
50.90737 122.000
50.92779 138.000
50.94822 134.000
50.96864 159.000
50.98906 128.000
51.00948 150.000
51.02991 147.000
51.05033 130.000
51.07075 135.000
51.09118 144.000
51.11160 149.000
51.13202 120.000
51.15245 137.000
51.17287 135.000
51.19329 139.000
51.21371 143.000
51.23414 155.000
51.25456 157.000
51.27498 129.000
51.29541 127.000
51.31583 141.000
51.33625 174.000
51.35668 160.000
51.37710 144.000
51.39752 132.000
51.41794 152.000
51.43837 150.000
51.45879 152.000
51.47921 173.000
51.49964 172.000
51.52006 150.000
51.54048 158.000
51.56091 151.000
51.58133 194.000
51.60175 137.000
51.62217 147.000
51.64260 147.000
51.66302 150.000
51.68344 161.000
51.70387 149.000
51.72429 135.000
51.74471 156.000
51.76514 146.000
51.78556 147.000
51.80598 140.000
51.82640 133.000
51.84683 150.000
51.86725 150.000
51.88767 135.000
51.90810 178.000
51.92852 153.000
51.94894 116.000
51.96937 164.000
51.98979 126.000
52.01021 176.000
52.03063 155.000
52.05106 148.000
52.07148 148.000
52.09190 142.000
52.11233 143.000
52.13275 149.000
52.15317 157.000
52.17360 149.000
52.19402 148.000
52.21444 155.000
52.23486 139.000
52.25529 167.000
52.27571 138.000
52.29613 166.000
52.31656 139.000
52.33698 155.000
52.35740 160.000
52.37783 134.000
52.39825 150.000
52.41867 155.000
52.43909 142.000
52.45952 139.000
52.47994 133.000
52.50036 156.000
52.52079 166.000
52.54121 172.000
52.56163 142.000
52.58206 143.000
52.60248 122.000
52.62290 138.000
52.64332 148.000
52.66375 144.000
52.68417 147.000
52.70459 132.000
52.72502 147.000
52.74544 135.000
52.76586 142.000
52.78629 162.000
52.80671 144.000
52.82713 171.000
52.84755 160.000
52.86798 167.000
52.88840 151.000
52.90882 145.000
52.92925 145.000
52.94967 155.000
52.97009 146.000
52.99052 160.000
53.01094 155.000
53.03136 141.000
53.05178 137.000
53.07221 165.000
53.09263 157.000
53.11305 156.000
53.13348 156.000
53.15390 149.000
53.17432 128.000
53.19475 149.000
53.21517 166.000
53.23559 147.000
53.25601 171.000
53.27644 172.000
53.29686 160.000
53.31728 166.000
53.33771 146.000
53.35813 141.000
53.37855 152.000
53.39898 152.000
53.41940 161.000
53.43982 154.000
53.46024 169.000
53.48067 139.000
53.50109 174.000
53.52151 180.000
53.54194 161.000
53.56236 193.000
53.58278 153.000
53.60321 177.000
53.62363 170.000
53.64405 195.000
53.66447 219.000
53.68490 233.000
53.70532 251.000
53.72574 266.000
53.74617 313.000
53.76659 309.000
53.78701 417.000
53.80744 559.000
53.82786 744.000
53.84828 950.000
53.86870 1090.000
53.88913 983.000
53.90955 755.000
53.92997 580.000
53.95040 481.000
53.97082 516.000
53.99124 587.000
54.01167 584.000
54.03209 546.000
54.05251 449.000
54.07293 334.000
54.09336 286.000
54.11378 240.000
54.13420 206.000
54.15463 212.000
54.17505 201.000
54.19547 202.000
54.21590 167.000
54.23632 186.000
54.25674 170.000
54.27716 171.000
54.29759 161.000
54.31801 173.000
54.33843 176.000
54.35886 165.000
54.37928 165.000
54.39970 170.000
54.42013 169.000
54.44055 142.000
54.46097 169.000
54.48139 159.000
54.50182 159.000
54.52224 140.000
54.54266 183.000
54.56309 167.000
54.58351 173.000
54.60393 169.000
54.62436 182.000
54.64478 140.000
54.66520 176.000
54.68562 151.000
54.70605 179.000
54.72647 180.000
54.74689 167.000
54.76732 180.000
54.78774 178.000
54.80816 187.000
54.82859 197.000
54.84901 213.000
54.86943 211.000
54.88985 231.000
54.91028 255.000
54.93070 285.000
54.95112 343.000
54.97155 493.000
54.99197 584.000
55.01239 889.000
55.03282 1044.000
55.05324 1015.000
55.07366 799.000
55.09408 609.000
55.11451 502.000
55.13493 492.000
55.15535 540.000
55.17578 623.000
55.19620 620.000
55.21662 494.000
55.23705 421.000
55.25747 295.000
55.27789 271.000
55.29831 206.000
55.31874 194.000
55.33916 185.000
55.35958 166.000
55.38001 176.000
55.40043 169.000
55.42085 154.000
55.44128 175.000
55.46170 164.000
55.48212 147.000
55.50254 163.000
55.52297 157.000
55.54339 173.000
55.56381 143.000
55.58424 146.000
55.60466 175.000
55.62508 139.000
55.64551 152.000
55.66593 144.000
55.68635 147.000
55.70677 140.000
55.72720 148.000
55.74762 148.000
55.76804 144.000
55.78847 139.000
55.80889 127.000
55.82931 159.000
55.84974 153.000
55.87016 127.000
55.89058 143.000
55.91100 134.000
55.93143 165.000
55.95185 153.000
55.97227 138.000
55.99270 136.000
56.01312 158.000
56.03354 156.000
56.05397 136.000
56.07439 166.000
56.09481 164.000
56.11523 148.000
56.13566 159.000
56.15608 140.000
56.17650 147.000
56.19693 147.000
56.21735 151.000
56.23777 126.000
56.25820 173.000
56.27862 148.000
56.29904 148.000
56.31946 125.000
56.33989 149.000
56.36031 147.000
56.38073 159.000
56.40116 113.000
56.42158 118.000
56.44200 138.000
56.46243 146.000
56.48285 161.000
56.50327 139.000
56.52369 133.000
56.54412 167.000
56.56454 158.000
56.58496 141.000
56.60539 141.000
56.62581 150.000
56.64623 150.000
56.66666 125.000
56.68708 139.000
56.70750 175.000
56.72792 113.000
56.74835 160.000
56.76877 138.000
56.78919 148.000
56.80962 157.000
56.83004 142.000
56.85046 155.000
56.87089 134.000
56.89131 158.000
56.91173 135.000
56.93215 139.000
56.95258 144.000
56.97300 145.000
56.99342 155.000
57.01385 139.000
57.03427 147.000
57.05469 131.000
57.07512 124.000
57.09554 112.000
57.11596 145.000
57.13638 146.000
57.15681 140.000
57.17723 153.000
57.19765 162.000
57.21808 146.000
57.23850 123.000
57.25892 144.000
57.27935 142.000
57.29977 141.000
57.32019 152.000
57.34061 127.000
57.36104 143.000
57.38146 148.000
57.40188 122.000
57.42231 140.000
57.44273 153.000
57.46315 136.000
57.48358 149.000
57.50400 120.000
57.52442 135.000
57.54484 151.000
57.56527 157.000
57.58569 125.000
57.60611 138.000
57.62654 150.000
57.64696 127.000
57.66738 138.000
57.68781 144.000
57.70823 131.000
57.72865 156.000
57.74907 147.000
57.76950 123.000
57.78992 145.000
57.81034 139.000
57.83077 126.000
57.85119 140.000
57.87161 151.000
57.89204 138.000
57.91246 143.000
57.93288 135.000
57.95330 144.000
57.97373 116.000
57.99415 141.000
58.01457 166.000
58.03500 139.000
58.05542 152.000
58.07584 131.000
58.09627 153.000
58.11669 150.000
58.13711 143.000
58.15753 143.000
58.17796 138.000
58.19838 143.000
58.21880 160.000
58.23923 136.000
58.25965 148.000
58.28007 135.000
58.30050 138.000
58.32092 136.000
58.34134 135.000
58.36176 127.000
58.38219 130.000
58.40261 121.000
58.42303 151.000
58.44346 135.000
58.46388 147.000
58.48430 147.000
58.50473 150.000
58.52515 145.000
58.54557 124.000
58.56599 136.000
58.58642 127.000
58.60684 134.000
58.62726 138.000
58.64769 142.000
58.66811 152.000
58.68853 133.000
58.70896 135.000
58.72938 141.000
58.74980 148.000
58.77022 131.000
58.79065 145.000
58.81107 145.000
58.83149 134.000
58.85192 140.000
58.87234 167.000
58.89276 145.000
58.91319 152.000
58.93361 125.000
58.95403 138.000
58.97445 137.000
58.99488 136.000
59.01530 137.000
59.03572 121.000
59.05615 125.000
59.07657 105.000
59.09699 125.000
59.11742 139.000
59.13784 147.000
59.15826 131.000
59.17868 134.000
59.19911 139.000
59.21953 158.000
59.23995 156.000
59.26038 113.000
59.28080 134.000
59.30122 135.000
59.32165 155.000
59.34207 145.000
59.36249 126.000
59.38291 139.000
59.40334 127.000
59.42376 136.000
59.44418 142.000
59.46461 133.000
59.48503 145.000
59.50545 149.000
59.52588 152.000
59.54630 134.000
59.56672 128.000
59.58714 142.000
59.60757 145.000
59.62799 135.000
59.64841 145.000
59.66884 148.000
59.68926 134.000
59.70968 131.000
59.73011 155.000
59.75053 167.000
59.77095 146.000
59.79137 158.000
59.81180 136.000
59.83222 140.000
59.85264 146.000
59.87307 143.000
59.89349 152.000
59.91391 143.000
59.93434 131.000
59.95476 147.000
59.97518 132.000
59.99560 152.000
60.01603 144.000
60.03645 124.000
60.05687 134.000
60.07730 128.000
60.09772 132.000
60.11814 125.000
60.13857 133.000
60.15899 148.000
60.17941 137.000
60.19983 135.000
60.22026 149.000
60.24068 129.000
60.26110 127.000
60.28153 147.000
60.30195 149.000
60.32237 147.000
60.34280 127.000
60.36322 156.000
60.38364 131.000
60.40406 130.000
60.42449 153.000
60.44491 148.000
60.46533 152.000
60.48576 144.000
60.50618 124.000
60.52660 167.000
60.54703 144.000
60.56745 161.000
60.58787 139.000
60.60829 153.000
60.62872 132.000
60.64914 142.000
60.66956 130.000
60.68999 148.000
60.71041 159.000
60.73083 134.000
60.75126 123.000
60.77168 150.000
60.79210 160.000
60.81252 143.000
60.83295 152.000
60.85337 142.000
60.87379 133.000
60.89422 150.000
60.91464 132.000
60.93506 139.000
60.95549 135.000
60.97591 136.000
60.99633 166.000
61.01675 132.000
61.03718 135.000
61.05760 142.000
61.07802 132.000
61.09845 126.000
61.11887 148.000
61.13929 143.000
61.15972 134.000
61.18014 134.000
61.20056 129.000
61.22098 158.000
61.24141 140.000
61.26183 166.000
61.28225 139.000
61.30268 123.000
61.32310 132.000
61.34352 155.000
61.36395 126.000
61.38437 139.000
61.40479 138.000
61.42521 151.000
61.44564 144.000
61.46606 166.000
61.48648 145.000
61.50691 132.000
61.52733 127.000
61.54775 125.000
61.56818 138.000
61.58860 131.000
61.60902 131.000
61.62944 135.000
61.64987 146.000
61.67029 161.000
61.69071 160.000
61.71114 140.000
61.73156 148.000
61.75198 130.000
61.77241 129.000
61.79283 146.000
61.81325 159.000
61.83367 153.000
61.85410 155.000
61.87452 143.000
61.89494 176.000
61.91537 150.000
61.93579 164.000
61.95621 163.000
61.97664 184.000
61.99706 163.000
62.01748 190.000
62.03790 229.000
62.05833 244.000
62.07875 267.000
62.09917 283.000
62.11960 278.000
62.14002 198.000
62.16044 175.000
62.18087 181.000
62.20129 184.000
62.22171 220.000
62.24213 192.000
62.26256 229.000
62.28298 221.000
62.30340 194.000
62.32383 186.000
62.34425 160.000
62.36467 164.000
62.38510 182.000
62.40552 157.000
62.42594 176.000
62.44636 151.000
62.46679 181.000
62.48721 188.000
62.50763 205.000
62.52806 239.000
62.54848 229.000
62.56890 283.000
62.58933 348.000
62.60975 441.000
62.63017 553.000
62.65059 687.000
62.67102 743.000
62.69144 623.000
62.71186 536.000
62.73229 402.000
62.75271 369.000
62.77313 352.000
62.79356 368.000
62.81398 446.000
62.83440 442.000
62.85482 460.000
62.87525 387.000
62.89567 297.000
62.91609 243.000
62.93652 216.000
62.95694 189.000
62.97736 185.000
62.99779 171.000
63.01821 185.000
63.03863 140.000
63.05905 155.000
63.07948 167.000
63.09990 148.000
63.12032 149.000
63.14075 153.000
63.16117 139.000
63.18159 129.000
63.20202 138.000
63.22244 129.000
63.24286 150.000
63.26328 134.000
63.28371 167.000
63.30413 159.000
63.32455 115.000
63.34498 165.000
63.36540 145.000
63.38582 120.000
63.40625 130.000
63.42667 157.000
63.44709 130.000
63.46751 127.000
63.48794 153.000
63.50836 146.000
63.52878 131.000
63.54921 123.000
63.56963 135.000
63.59005 150.000
63.61048 137.000
63.63090 132.000
63.65132 140.000
63.67174 151.000
63.69217 137.000
63.71259 147.000
63.73301 141.000
63.75344 133.000
63.77386 116.000
63.79428 153.000
63.81471 143.000
63.83513 135.000
63.85555 139.000
63.87597 131.000
63.89640 132.000
63.91682 129.000
63.93724 123.000
63.95767 148.000
63.97809 130.000
63.99851 127.000
64.01894 130.000
64.03936 146.000
64.05978 147.000
64.08020 134.000
64.10063 134.000
64.12105 143.000
64.14147 136.000
64.16190 148.000
64.18232 141.000
64.20274 143.000
64.22317 145.000
64.24359 154.000
64.26401 110.000
64.28443 146.000
64.30486 145.000
64.32528 134.000
64.34570 108.000
64.36613 132.000
64.38655 155.000
64.40697 141.000
64.42740 134.000
64.44782 118.000
64.46824 140.000
64.48866 124.000
64.50909 139.000
64.52951 128.000
64.54993 159.000
64.57036 126.000
64.59078 136.000
64.61120 118.000
64.63163 125.000
64.65205 136.000
64.67247 140.000
64.69289 127.000
64.71332 140.000
64.73374 142.000
64.75416 128.000
64.77459 117.000
64.79501 140.000
64.81543 138.000
64.83586 125.000
64.85628 137.000
64.87670 101.000
64.89712 108.000
64.91755 120.000
64.93797 116.000
64.95839 154.000
64.97882 138.000
64.99924 129.000
65.01966 149.000
65.04009 141.000
65.06051 121.000
65.08093 125.000
65.10135 150.000
65.12178 134.000
65.14220 119.000
65.16262 142.000
65.18305 142.000
65.20347 123.000
65.22389 115.000
65.24432 136.000
65.26474 148.000
65.28516 156.000
65.30558 112.000
65.32601 139.000
65.34643 126.000
65.36685 137.000
65.38728 141.000
65.40770 131.000
65.42812 117.000
65.44855 147.000
65.46897 124.000
65.48939 125.000
65.50981 149.000
65.53024 139.000
65.55066 130.000
65.57108 150.000
65.59151 131.000
65.61193 126.000
65.63235 133.000
65.65278 140.000
65.67320 126.000
65.69362 149.000
65.71404 153.000
65.73447 147.000
65.75489 123.000
65.77531 152.000
65.79574 138.000
65.81616 145.000
65.83658 144.000
65.85701 141.000
65.87743 135.000
65.89785 143.000
65.91827 118.000
65.93870 140.000
65.95912 131.000
65.97954 133.000
65.99997 132.000
66.02039 151.000
66.04081 110.000
66.06124 140.000
66.08166 125.000
66.10208 151.000
66.12250 142.000
66.14293 112.000
66.16335 136.000
66.18377 145.000
66.20420 141.000
66.22462 132.000
66.24504 134.000
66.26547 128.000
66.28589 140.000
66.30631 129.000
66.32673 149.000
66.34716 150.000
66.36758 144.000
66.38800 134.000
66.40843 122.000
66.42885 130.000
66.44927 133.000
66.46970 130.000
66.49012 148.000
66.51054 133.000
66.53096 150.000
66.55139 126.000
66.57181 134.000
66.59223 165.000
66.61266 123.000
66.63308 127.000
66.65350 126.000
66.67393 134.000
66.69435 140.000
66.71477 133.000
66.73519 117.000
66.75562 141.000
66.77604 105.000
66.79646 139.000
66.81689 128.000
66.83731 153.000
66.85773 132.000
66.87816 103.000
66.89858 115.000
66.91900 145.000
66.93942 145.000
66.95985 126.000
66.98027 134.000
67.00069 113.000
67.02112 139.000
67.04154 132.000
67.06196 134.000
67.08239 113.000
67.10281 121.000
67.12323 136.000
67.14365 123.000
67.16408 124.000
67.18450 137.000
67.20492 149.000
67.22535 150.000
67.24577 108.000
67.26619 106.000
67.28662 136.000
67.30704 140.000
67.32746 125.000
67.34788 125.000
67.36831 148.000
67.38873 132.000
67.40915 128.000
67.42958 105.000
67.45000 136.000
67.47042 152.000
67.49085 140.000
67.51127 125.000
67.53169 135.000
67.55211 128.000
67.57254 127.000
67.59296 134.000
67.61338 129.000
67.63381 122.000
67.65423 127.000
67.67465 130.000
67.69508 123.000
67.71550 141.000
67.73592 132.000
67.75634 148.000
67.77677 118.000
67.79719 146.000
67.81761 116.000
67.83804 128.000
67.85846 130.000
67.87888 137.000
67.89931 142.000
67.91973 134.000
67.94015 126.000
67.96057 132.000
67.98100 133.000
68.00142 138.000
68.02184 141.000
68.04227 153.000
68.06269 154.000
68.08311 137.000
68.10354 151.000
68.12396 142.000
68.14438 121.000
68.16480 141.000
68.18523 145.000
68.20565 125.000
68.22607 138.000
68.24650 137.000
68.26692 127.000
68.28734 145.000
68.30777 143.000
68.32819 142.000
68.34861 130.000
68.36903 139.000
68.38946 138.000
68.40988 146.000
68.43030 138.000
68.45073 151.000
68.47115 148.000
68.49157 157.000
68.51200 151.000
68.53242 153.000
68.55284 164.000
68.57326 147.000
68.59369 165.000
68.61411 202.000
68.63453 196.000
68.65496 188.000
68.67538 230.000
68.69580 269.000
68.71623 337.000
68.73665 340.000
68.75707 339.000
68.77749 345.000
68.79792 268.000
68.81834 222.000
68.83876 202.000
68.85919 228.000
68.87961 191.000
68.90003 211.000
68.92046 236.000
68.94088 272.000
68.96130 239.000
68.98172 207.000
69.00215 197.000
69.02257 178.000
69.04299 172.000
69.06342 149.000
69.08384 141.000
69.10426 159.000
69.12469 151.000
69.14511 139.000
69.16553 139.000
69.18595 104.000
69.20638 150.000
69.22680 123.000
69.24722 159.000
69.26765 125.000
69.28807 137.000
69.30849 149.000
69.32892 133.000
69.34934 133.000
69.36976 138.000
69.39018 113.000
69.41061 120.000
69.43103 131.000
69.45145 143.000
69.47188 131.000
69.49230 122.000
69.51272 150.000
69.53315 134.000
69.55357 139.000
69.57399 126.000
69.59441 123.000
69.61484 123.000
69.63526 114.000
69.65568 132.000
69.67611 122.000
69.69653 153.000
69.71695 121.000
69.73738 132.000
69.75780 117.000
69.77822 125.000
69.79864 119.000
69.81907 150.000
69.83949 142.000
69.85991 137.000
69.88034 144.000
69.90076 111.000
69.92118 140.000
69.94161 132.000
69.96203 137.000
69.98245 150.000
70.00287 146.000
70.02330 164.000
70.04372 147.000
70.06414 172.000
70.08457 146.000
70.10499 154.000
70.12541 158.000
70.14584 211.000
70.16626 184.000
70.18668 214.000
70.20710 229.000
70.22753 313.000
70.24795 382.000
70.26837 434.000
70.28880 368.000
70.30922 319.000
70.32964 270.000
70.35007 227.000
70.37049 187.000
70.39091 184.000
70.41133 222.000
70.43176 232.000
70.45218 272.000
70.47260 238.000
70.49303 272.000
70.51345 236.000
70.53387 164.000
70.55430 141.000
70.57472 150.000
70.59514 158.000
70.61556 136.000
70.63599 129.000
70.65641 146.000
70.67683 178.000
70.69726 137.000
70.71768 128.000
70.73810 140.000
70.75853 127.000
70.77895 119.000
70.79937 138.000
70.81979 128.000
70.84022 138.000
70.86064 150.000
70.88106 119.000
70.90149 118.000
70.92191 116.000
70.94233 131.000
70.96276 121.000
70.98318 101.000
71.00360 129.000
71.02402 140.000
71.04445 114.000
71.06487 123.000
71.08529 122.000
71.10572 134.000
71.12614 125.000
71.14656 140.000
71.16699 123.000
71.18741 128.000
71.20783 139.000
71.22825 122.000
71.24868 136.000
71.26910 115.000
71.28952 128.000
71.30995 132.000
71.33037 134.000
71.35079 127.000
71.37122 124.000
71.39164 128.000
71.41206 133.000
71.43248 133.000
71.45291 112.000
71.47333 130.000
71.49375 119.000
71.51418 121.000
71.53460 133.000
71.55502 125.000
71.57545 137.000
71.59587 126.000
71.61629 120.000
71.63671 121.000
71.65714 115.000
71.67756 108.000
71.69798 95.000
71.71841 131.000
71.73883 105.000
71.75925 111.000
71.77968 129.000
71.80010 132.000
71.82052 120.000
71.84094 117.000
71.86137 114.000
71.88179 121.000
71.90221 131.000
71.92264 123.000
71.94306 126.000
71.96348 133.000
71.98391 138.000
72.00433 130.000
72.02475 113.000
72.04517 121.000
72.06560 143.000
72.08602 118.000
72.10644 138.000
72.12687 125.000
72.14729 126.000
72.16771 121.000
72.18814 123.000
72.20856 108.000
72.22898 129.000
72.24940 111.000
72.26983 125.000
72.29025 142.000
72.31067 119.000
72.33110 110.000
72.35152 133.000
72.37194 115.000
72.39237 122.000
72.41279 116.000
72.43321 146.000
72.45363 131.000
72.47406 127.000
72.49448 130.000
72.51490 129.000
72.53533 115.000
72.55575 107.000
72.57617 128.000
72.59660 121.000
72.61702 115.000
72.63744 98.000
72.65786 126.000
72.67829 122.000
72.69871 109.000
72.71913 106.000
72.73956 115.000
72.75998 115.000
72.78040 141.000
72.80083 149.000
72.82125 122.000
72.84167 112.000
72.86209 130.000
72.88252 109.000
72.90294 116.000
72.92336 131.000
72.94379 126.000
72.96421 129.000
72.98463 109.000
73.00506 112.000
73.02548 129.000
73.04590 133.000
73.06632 129.000
73.08675 145.000
73.10717 94.000
73.12759 113.000
73.14802 115.000
73.16844 132.000
73.18886 131.000
73.20929 126.000
73.22971 124.000
73.25013 124.000
73.27055 147.000
73.29098 126.000
73.31140 134.000
73.33182 108.000
73.35225 105.000
73.37267 113.000
73.39309 125.000
73.41352 112.000
73.43394 116.000
73.45436 140.000
73.47478 125.000
73.49521 130.000
73.51563 125.000
73.53605 144.000
73.55648 138.000
73.57690 140.000
73.59732 124.000
73.61775 123.000
73.63817 116.000
73.65859 121.000
73.67901 119.000
73.69944 123.000
73.71986 111.000
73.74028 126.000
73.76071 116.000
73.78113 120.000
73.80155 130.000
73.82198 133.000
73.84240 103.000
73.86282 103.000
73.88324 114.000
73.90367 131.000
73.92409 111.000
73.94451 160.000
73.96494 135.000
73.98536 132.000
74.00578 137.000
74.02621 143.000
74.04663 149.000
74.06705 155.000
74.08747 124.000
74.10790 125.000
74.12832 129.000
74.14874 135.000
74.16917 106.000
74.18959 118.000
74.21001 141.000
74.23044 141.000
74.25086 126.000
74.27128 111.000
74.29170 152.000
74.31213 145.000
74.33255 115.000
74.35297 132.000
74.37340 144.000
74.39382 136.000
74.41424 129.000
74.43467 135.000
74.45509 144.000
74.47551 148.000
74.49593 126.000
74.51636 109.000
74.53678 122.000
74.55720 133.000
74.57763 131.000
74.59805 139.000
74.61847 128.000
74.63890 129.000
74.65932 128.000
74.67974 143.000
74.70016 124.000
74.72059 144.000
74.74101 135.000
74.76143 138.000
74.78186 160.000
74.80228 116.000
74.82270 159.000
74.84313 168.000
74.86355 175.000
74.88397 181.000
74.90439 208.000
74.92482 235.000
74.94524 283.000
74.96566 339.000
74.98609 408.000
75.00651 436.000
75.02693 498.000
75.04736 488.000
75.06778 404.000
75.08820 320.000
75.10862 289.000
75.12905 279.000
75.14947 220.000
75.16989 223.000
75.19032 242.000
75.21074 280.000
75.23116 314.000
75.25159 316.000
75.27201 309.000
75.29243 273.000
75.31285 213.000
75.33328 181.000
75.35370 161.000
75.37412 160.000
75.39455 145.000
75.41497 154.000
75.43539 132.000
75.45582 148.000
75.47624 130.000
75.49666 143.000
75.51708 126.000
75.53751 114.000
75.55793 122.000
75.57835 133.000
75.59878 132.000
75.61920 146.000
75.63962 135.000
75.66005 126.000
75.68047 118.000
75.70089 111.000
75.72131 119.000
75.74174 114.000
75.76216 125.000
75.78258 144.000
75.80301 130.000
75.82343 113.000
75.84385 129.000
75.86428 151.000
75.88470 135.000
75.90512 150.000
75.92554 177.000
75.94597 164.000
75.96639 178.000
75.98681 227.000
76.00724 217.000
76.02766 233.000
76.04808 202.000
76.06851 166.000
76.08893 154.000
76.10935 162.000
76.12977 135.000
76.15020 126.000
76.17062 152.000
76.19104 141.000
76.21147 163.000
76.23189 163.000
76.25231 176.000
76.27274 172.000
76.29316 153.000
76.31358 129.000
76.33400 134.000
76.35443 120.000
76.37485 141.000
76.39527 113.000
76.41570 129.000
76.43612 123.000
76.45654 110.000
76.47697 131.000
76.49739 127.000
76.51781 147.000
76.53823 134.000
76.55866 132.000
76.57908 124.000
76.59950 108.000
76.61993 124.000
76.64035 127.000
76.66077 114.000
76.68120 124.000
76.70162 116.000
76.72204 119.000
76.74246 117.000
76.76289 127.000
76.78331 108.000
76.80373 113.000
76.82416 115.000
76.84458 88.000
76.86500 123.000
76.88543 140.000
76.90585 127.000
76.92627 107.000
76.94669 120.000
76.96712 114.000
76.98754 132.000
77.00796 123.000
77.02839 127.000
77.04881 120.000
77.06923 127.000
77.08966 123.000
77.11008 131.000
77.13050 118.000
77.15092 111.000
77.17135 121.000
77.19177 119.000
77.21219 129.000
77.23262 97.000
77.25304 103.000
77.27346 110.000
77.29389 130.000
77.31431 130.000
77.33473 133.000
77.35515 130.000
77.37558 122.000
77.39600 119.000
77.41642 116.000
77.43685 91.000
77.45727 142.000
77.47769 123.000
77.49812 121.000
77.51854 112.000
77.53896 131.000
77.55938 111.000
77.57981 134.000
77.60023 121.000
77.62065 134.000
77.64108 122.000
77.66150 99.000
77.68192 139.000
77.70235 123.000
77.72277 118.000
77.74319 120.000
77.76361 130.000
77.78404 133.000
77.80446 105.000
77.82488 80.000
77.84531 126.000
77.86573 114.000
77.88615 124.000
77.90658 116.000
77.92700 94.000
77.94742 101.000
77.96784 122.000
77.98827 121.000
78.00869 131.000
78.02911 115.000
78.04954 123.000
78.06996 116.000
78.09038 127.000
78.11081 113.000
78.13123 129.000
78.15165 122.000
78.17207 126.000
78.19250 122.000
78.21292 119.000
78.23334 131.000
78.25377 105.000
78.27419 120.000
78.29461 123.000
78.31504 126.000
78.33546 119.000
78.35588 125.000
78.37630 110.000
78.39673 116.000
78.41715 118.000
78.43757 100.000
78.45800 115.000
78.47842 104.000
78.49884 118.000
78.51927 109.000
78.53969 120.000
78.56011 108.000
78.58053 113.000
78.60096 117.000
78.62138 105.000
78.64180 96.000
78.66223 118.000
78.68265 136.000
78.70307 118.000
78.72350 118.000
78.74392 119.000
78.76434 124.000
78.78476 123.000
78.80519 107.000
78.82561 128.000
78.84603 109.000
78.86646 113.000
78.88688 128.000
78.90730 123.000
78.92773 108.000
78.94815 113.000
78.96857 132.000
78.98899 116.000
79.00942 113.000
79.02984 123.000
79.05026 131.000
79.07069 119.000
79.09111 120.000
79.11153 110.000
79.13196 115.000
79.15238 123.000
79.17280 105.000
79.19322 112.000
79.21365 134.000
79.23407 115.000
79.25449 119.000
79.27492 134.000
79.29534 114.000
79.31576 110.000
79.33619 119.000
79.35661 122.000
79.37703 98.000
79.39745 135.000
79.41788 121.000
79.43830 123.000
79.45872 109.000
79.47915 129.000
79.49957 109.000
79.51999 125.000
79.54042 117.000
79.56084 124.000
79.58126 123.000
79.60168 128.000
79.62211 111.000
79.64253 108.000
79.66295 131.000
79.68338 88.000
79.70380 122.000
79.72422 100.000
79.74465 98.000
79.76507 117.000
79.78549 117.000
79.80591 100.000
79.82634 110.000
79.84676 120.000
79.86718 115.000
79.88761 131.000
79.90803 120.000
79.92845 148.000
79.94888 115.000
79.96930 128.000
79.98972 110.000
80.01014 114.000
80.03057 108.000
80.05099 102.000
80.07141 115.000
80.09184 116.000
80.11226 124.000
80.13268 127.000
80.15311 95.000
80.17353 135.000
80.19395 106.000
80.21437 114.000
80.23480 114.000
80.25522 119.000
80.27564 119.000
80.29607 97.000
80.31649 128.000
80.33691 117.000
80.35734 120.000
80.37776 112.000
80.39818 110.000
80.41860 123.000
80.43903 118.000
80.45945 125.000
80.47987 113.000
80.50030 121.000
80.52072 116.000
80.54114 120.000
80.56157 136.000
80.58199 98.000
80.60241 128.000
80.62283 130.000
80.64326 114.000
80.66368 108.000
80.68410 129.000
80.70453 106.000
80.72495 155.000
80.74537 135.000
80.76580 135.000
80.78622 118.000
80.80664 121.000
80.82706 122.000
80.84749 135.000
80.86791 130.000
80.88833 134.000
80.90876 113.000
80.92918 133.000
80.94960 108.000
80.97003 127.000
80.99045 139.000
81.01087 121.000
81.03129 104.000
81.05172 105.000
81.07214 111.000
81.09256 101.000
81.11299 133.000
81.13341 107.000
81.15383 119.000
81.17426 97.000
81.19468 118.000
81.21510 116.000
81.23552 135.000
81.25595 109.000
81.27637 130.000
81.29679 122.000
81.31722 116.000
81.33764 117.000
81.35806 118.000
81.37849 118.000
81.39891 117.000
81.41933 96.000
81.43975 118.000
81.46018 116.000
81.48060 110.000
81.50102 118.000
81.52145 118.000
81.54187 123.000
81.56229 98.000
81.58272 129.000
81.60314 118.000
81.62356 116.000
81.64398 127.000
81.66441 110.000
81.68483 141.000
81.70525 106.000
81.72568 114.000
81.74610 130.000
81.76652 131.000
81.78695 110.000
81.80737 114.000
81.82779 104.000
81.84821 110.000
81.86864 120.000
81.88906 95.000
81.90948 127.000
81.92991 109.000
81.95033 123.000
81.97075 88.000
81.99118 118.000
82.01160 114.000
82.03202 140.000
82.05244 120.000
82.07287 125.000
82.09329 116.000
82.11371 136.000
82.13414 124.000
82.15456 143.000
82.17498 132.000
82.19541 168.000
82.21583 138.000
82.23625 122.000
82.25667 105.000
82.27710 141.000
82.29752 155.000
82.31794 118.000
82.33837 125.000
82.35879 133.000
82.37921 126.000
82.39964 141.000
82.42006 139.000
82.44048 134.000
82.46090 148.000
82.48133 135.000
82.50175 137.000
82.52217 150.000
82.54260 179.000
82.56302 164.000
82.58344 186.000
82.60387 242.000
82.62429 226.000
82.64471 260.000
82.66513 281.000
82.68556 321.000
82.70598 224.000
82.72640 218.000
82.74683 166.000
82.76725 173.000
82.78767 181.000
82.80810 178.000
82.82852 164.000
82.84894 174.000
82.86936 196.000
82.88979 205.000
82.91021 190.000
82.93063 205.000
82.95106 182.000
82.97148 169.000
82.99190 167.000
83.01233 153.000
83.03275 164.000
83.05317 165.000
83.07359 158.000
83.09402 168.000
83.11444 187.000
83.13486 181.000
83.15529 176.000
83.17571 166.000
83.19613 150.000
83.21656 151.000
83.23698 143.000
83.25740 120.000
83.27782 120.000
83.29825 130.000
83.31867 151.000
83.33909 127.000
83.35952 138.000
83.37994 151.000
83.40036 160.000
83.42079 134.000
83.44121 133.000
83.46163 136.000
83.48205 149.000
83.50248 119.000
83.52290 131.000
83.54332 115.000
83.56375 138.000
83.58417 115.000
83.60459 107.000
83.62502 120.000
83.64544 108.000
83.66586 104.000
83.68628 133.000
83.70671 123.000
83.72713 124.000
83.74755 112.000
83.76798 120.000
83.78840 118.000
83.80882 130.000
83.82925 132.000
83.84967 100.000
83.87009 106.000
83.89051 106.000
83.91094 120.000
83.93136 109.000
83.95178 109.000
83.97221 135.000
83.99263 103.000
84.01305 126.000
84.03348 106.000
84.05390 105.000
84.07432 116.000
84.09474 108.000
84.11517 112.000
84.13559 115.000
84.15601 122.000
84.17644 129.000
84.19686 105.000
84.21728 99.000
84.23771 115.000
84.25813 98.000
84.27855 103.000
84.29897 121.000
84.31940 98.000
84.33982 123.000
84.36024 115.000
84.38067 124.000
84.40109 108.000
84.42151 112.000
84.44194 109.000
84.46236 119.000
84.48278 94.000
84.50320 104.000
84.52363 111.000
84.54405 117.000
84.56447 117.000
84.58490 114.000
84.60532 128.000
84.62574 109.000
84.64617 111.000
84.66659 130.000
84.68701 105.000
84.70743 111.000
84.72786 129.000
84.74828 88.000
84.76870 78.000
84.78913 117.000
84.80955 117.000
84.82997 110.000
84.85040 102.000
84.87082 112.000
84.89124 110.000
84.91166 134.000
84.93209 115.000
84.95251 119.000
84.97293 101.000
84.99336 110.000
85.01378 113.000
85.03420 108.000
85.05463 112.000
85.07505 98.000
85.09547 108.000
85.11589 101.000
85.13632 114.000
85.15674 121.000
85.17716 103.000
85.19759 116.000
85.21801 99.000
85.23843 113.000
85.25886 93.000
85.27928 107.000
85.29970 105.000
85.32012 90.000
85.34055 117.000
85.36097 99.000
85.38139 100.000
85.40182 130.000
85.42224 104.000
85.44266 112.000
85.46309 115.000
85.48351 131.000
85.50393 110.000
85.52435 105.000
85.54478 115.000
85.56520 90.000
85.58562 106.000
85.60605 117.000
85.62647 100.000
85.64689 108.000
85.66732 119.000
85.68774 121.000
85.70816 103.000
85.72858 116.000
85.74901 113.000
85.76943 100.000
85.78985 101.000
85.81028 102.000
85.83070 99.000
85.85112 93.000
85.87155 123.000
85.89197 131.000
85.91239 109.000
85.93281 99.000
85.95324 97.000
85.97366 110.000
85.99408 105.000
86.01451 117.000
86.03493 100.000
86.05535 121.000
86.07578 106.000
86.09620 114.000
86.11662 126.000
86.13704 87.000
86.15747 111.000
86.17789 116.000
86.19831 120.000
86.21874 98.000
86.23916 107.000
86.25958 116.000
86.28001 112.000
86.30043 115.000
86.32085 105.000
86.34127 110.000
86.36170 104.000
86.38212 121.000
86.40254 101.000
86.42297 108.000
86.44339 110.000
86.46381 123.000
86.48424 95.000
86.50466 102.000
86.52508 116.000
86.54550 121.000
86.56593 117.000
86.58635 119.000
86.60677 131.000
86.62720 102.000
86.64762 114.000
86.66804 107.000
86.68847 108.000
86.70889 126.000
86.72931 119.000
86.74973 114.000
86.77016 114.000
86.79058 117.000
86.81100 99.000
86.83143 144.000
86.85185 110.000
86.87227 132.000
86.89270 131.000
86.91312 115.000
86.93354 107.000
86.95396 112.000
86.97439 105.000
86.99481 100.000
87.01523 90.000
87.03566 115.000
87.05608 128.000
87.07650 123.000
87.09693 106.000
87.11735 119.000
87.13777 103.000
87.15819 118.000
87.17862 104.000
87.19904 140.000
87.21946 104.000
87.23989 98.000
87.26031 101.000
87.28073 105.000
87.30116 94.000
87.32158 118.000
87.34200 113.000
87.36242 104.000
87.38285 108.000
87.40327 123.000
87.42369 108.000
87.44412 90.000
87.46454 123.000
87.48496 105.000
87.50539 108.000
87.52581 122.000
87.54623 100.000
87.56665 92.000
87.58708 115.000
87.60750 111.000
87.62792 112.000
87.64835 105.000
87.66877 117.000
87.68919 138.000
87.70962 108.000
87.73004 96.000
87.75046 103.000
87.77088 135.000
87.79131 118.000
87.81173 113.000
87.83215 105.000
87.85258 105.000
87.87300 107.000
87.89342 109.000
87.91385 117.000
87.93427 111.000
87.95469 108.000
87.97511 121.000
87.99554 117.000
88.01596 128.000
88.03638 112.000
88.05681 95.000
88.07723 102.000
88.09765 107.000
88.11808 87.000
88.13850 110.000
88.15892 94.000
88.17934 100.000
88.19977 101.000
88.22019 99.000
88.24061 119.000
88.26104 112.000
88.28146 94.000
88.30188 106.000
88.32231 103.000
88.34273 112.000
88.36315 103.000
88.38357 107.000
88.40400 117.000
88.42442 118.000
88.44484 111.000
88.46527 107.000
88.48569 115.000
88.50611 125.000
88.52654 108.000
88.54696 114.000
88.56738 95.000
88.58780 92.000
88.60823 106.000
88.62865 119.000
88.64907 98.000
88.66950 110.000
88.68992 119.000
88.71034 97.000
88.73077 117.000
88.75119 102.000
88.77161 110.000
88.79203 110.000
88.81246 100.000
88.83288 112.000
88.85330 107.000
88.87373 117.000
88.89415 104.000
88.91457 134.000
88.93500 100.000
88.95542 122.000
88.97584 113.000
88.99626 113.000
89.01669 94.000
89.03711 107.000
89.05753 114.000
89.07796 105.000
89.09838 105.000
89.11880 95.000
89.13923 112.000
89.15965 112.000
89.18007 110.000
89.20049 105.000
89.22092 94.000
89.24134 94.000
89.26176 105.000
89.28219 101.000
89.30261 90.000
89.32303 123.000
89.34346 101.000
89.36388 118.000
89.38430 108.000
89.40472 109.000
89.42515 112.000
89.44557 106.000
89.46599 93.000
89.48642 105.000
89.50684 111.000
89.52726 100.000
89.54769 106.000
89.56811 115.000
89.58853 95.000
89.60895 97.000
89.62938 110.000
89.64980 112.000
89.67022 125.000
89.69065 109.000
89.71107 113.000
89.73149 94.000
89.75192 111.000
89.77234 98.000
89.79276 85.000
89.81318 111.000
89.83361 119.000
89.85403 102.000
89.87445 92.000
89.89488 125.000
89.91530 104.000
89.93572 82.000
89.95615 106.000
89.97657 102.000
